
1.000013268598881622e+00 6.754484408438028839e-05
9.870687392102120983e-01 1.933918509301914192e-03
9.741238852754054989e-01 3.956936002879553674e-03
9.611751098607284050e-01 6.118807104890519426e-03
9.482186846831102134e-01 8.401528504500883898e-03
9.352512833197231812e-01 1.078678029183915456e-02
9.222691769953731411e-01 1.325606058269705734e-02
9.092688164636633097e-01 1.579057658786288398e-02
8.962466191791075287e-01 1.837127724771474291e-02
8.831987288674041370e-01 2.097889767676108796e-02
8.701470572924173696e-01 2.358875966585453898e-02
8.571207276203807179e-01 2.617472391676604893e-02
8.440993725750082222e-01 2.872564377538781855e-02
8.310719790320716394e-01 3.124139658325973332e-02
8.180385265257689165e-01 3.372174216542577624e-02
8.049989967857160700e-01 3.616643995273296358e-02
7.919533715824728093e-01 3.857524940739354147e-02
7.789016302511393430e-01 4.094793047013176729e-02
7.658437567924729628e-01 4.328424226475873632e-02
7.527797288915956120e-01 4.558394508240290466e-02
7.397095305393137643e-01 4.784679812313030745e-02
7.266331404191330723e-01 5.007256154715335195e-02
7.135504926942697335e-01 5.226101213664222783e-02
7.004615186611161670e-01 5.441201455368112339e-02
6.873663383839970775e-01 5.652545030449666191e-02
6.742650833122315612e-01 5.860119953195771364e-02
6.611578826661878017e-01 6.063914275311253071e-02
6.480448682100872215e-01 6.263916010550500679e-02
6.349261692680956415e-01 6.460113212302358299e-02
6.218019168940295271e-01 6.652493909485791834e-02
6.086722413455621927e-01 6.841046145034931913e-02
5.955372726667351735e-01 7.025757966628298767e-02
5.823971420793795373e-01 7.206617407444072809e-02
5.692519787202054982e-01 7.383612531386125888e-02
5.561019143999292869e-01 7.556731368040284225e-02
5.429470781052156969e-01 7.725961986609353183e-02
5.297876009778113016e-01 7.891292429881949233e-02
5.166236129901362606e-01 8.052710757758617388e-02
5.034552442142954387e-01 8.210205030522996217e-02
4.902826256377590397e-01 8.363763299625617820e-02
4.771107226482520502e-01 8.513229004526280674e-02
4.639481855433323920e-01 8.657795313394343883e-02
4.507943689289903855e-01 8.796512424338676084e-02
4.376485368487298966e-01 8.928437133336540599e-02
4.245098648550368337e-01 9.052633462647484419e-02
4.113774862642842756e-01 9.168171950957156036e-02
3.982446040373257556e-01 9.274243553122776818e-02
3.850782335614411633e-01 9.371683949823174375e-02
3.718744270059812229e-01 9.462483464009913137e-02
3.586348401445698109e-01 9.548670969908924777e-02
3.453611954727104916e-01 9.632304208224207187e-02
3.320658120701121541e-01 9.715329945624433250e-02
3.187987134493291408e-01 9.797249105070174324e-02
3.055742827826379293e-01 9.875248392974596279e-02
2.923911683977203912e-01 9.946524516482119216e-02
2.792487189037269335e-01 1.000832436911817114e-01
2.661459836916428845e-01 1.005794969928623384e-01
2.530818850588441582e-01 1.009275421962812225e-01
2.400556927286734143e-01 1.011014106638736670e-01
2.270661321963632351e-01 1.010756310304675165e-01
2.141119050029734183e-01 1.008251849685496276e-01
2.012053992325832652e-01 1.003236576922182932e-01
1.883697686391813120e-01 9.953654391680846758e-02
1.756186578920048147e-01 9.842782775981162580e-02
1.629652831892873799e-01 9.696258925505625570e-02
1.504206989665934080e-01 9.510695654945630628e-02
1.380002809349143156e-01 9.283228232505463806e-02
1.257345153993539300e-01 9.011588615185978091e-02
1.136538004292356463e-01 8.693620609291033419e-02
1.017869332142651434e-01 8.327239988122188408e-02
9.016111055567153920e-02 7.910419108460829685e-02
7.880166585511849675e-02 7.441155142975419690e-02
6.773196896653572996e-02 6.917430371856356230e-02
5.697343255350358071e-02 6.337163430730057001e-02
4.654571124715765895e-02 5.698157234718502495e-02
3.646683115330426328e-02 4.998029526209570028e-02
2.690606015551526981e-02 4.243659996985388316e-02
1.844531943032444790e-02 3.456294066256184599e-02
1.140425231679225403e-02 2.637807916946077053e-02
5.933832527882675935e-03 1.786916200647298628e-02
2.079450029716547847e-03 8.944071309559407240e-03
2.433630748834457653e-04 7.576066155458757419e-04
8.769526812586119846e-04 -5.456337114150237345e-03
3.624946938474765765e-03 -1.117337832338013114e-02
8.828408813334340244e-03 -1.634061596934179017e-02
1.753292210790769953e-02 -2.158848565527023491e-02
2.751928480120913525e-02 -2.578176626744477923e-02
3.842246857375360147e-02 -2.893743825855376456e-02
5.034104647977587915e-02 -3.139111950050501448e-02
6.292051908552831474e-02 -3.347511596159779418e-02
7.561202571731592825e-02 -3.523654363835008324e-02
8.840401398899945529e-02 -3.671109627739665981e-02
1.012921273149994944e-01 -3.793678022456817289e-02
1.142708454889140579e-01 -3.895265646087178735e-02
1.273344416023224346e-01 -3.979902411451562844e-02
1.404774728954196750e-01 -4.051748321481709464e-02
1.536936878636461223e-01 -4.115091013335038517e-02
1.669558813261806662e-01 -4.173906097579625774e-02
1.802114676714447750e-01 -4.229075912770034057e-02
1.934588948322528146e-01 -4.280147031680078817e-02
2.066992680403382243e-01 -4.326666494170407912e-02
2.199343915056610199e-01 -4.368189370156417423e-02
2.331704675009076133e-01 -4.404486654776899185e-02
2.464089297073028817e-01 -4.435595984764424682e-02
2.596495837770050885e-01 -4.461570878085845127e-02
2.728922414329549295e-01 -4.482464884951346817e-02
2.861367029252792071e-01 -4.498331558415927245e-02
2.993827822185121112e-01 -4.509224491859088052e-02
3.126302796646429072e-01 -4.515197285932490839e-02
3.258790046709140742e-01 -4.516303571317984572e-02
3.391287633101314203e-01 -4.512596997651084629e-02
3.523793586573868986e-01 -4.504131239154381822e-02
3.656306024269493915e-01 -4.490959986134904214e-02
3.788822931335389388e-01 -4.473136962791151444e-02
3.921342431176875198e-01 -4.450715899661965985e-02
4.053862526264199184e-01 -4.423750566742767204e-02
4.186381292013988675e-01 -4.392294744668603229e-02
4.318896785914051462e-01 -4.356402238309338426e-02
4.451407023879656588e-01 -4.316126887201712087e-02
4.583910117466337697e-01 -4.271522523730625354e-02
4.716404041546407022e-01 -4.222643046893376217e-02
4.848886909535496947e-01 -4.169542329359867544e-02
4.981362224436374775e-01 -4.112281545588648834e-02
5.113839075907500309e-01 -4.050981801527801796e-02
5.246318272576488972e-01 -3.985792730241994458e-02
5.378800250352626655e-01 -3.916864351324156335e-02
5.511285694217240572e-01 -3.844346708502161675e-02
5.643774922656217274e-01 -3.768390198089275472e-02
5.776268660350070139e-01 -3.689145144167200324e-02
5.908767250881777899e-01 -3.606762248247129266e-02
6.041271314888583266e-01 -3.521392202552251632e-02
6.173781331010638196e-01 -3.433185942759084397e-02
6.306297783882753860e-01 -3.342294560463145853e-02
6.438821283343262314e-01 -3.248869217314446362e-02
6.571352183920269319e-01 -3.153061412371911676e-02
6.703891222621655155e-01 -3.055022527229386831e-02
6.836438679550463915e-01 -2.954904435833404300e-02
6.968995265185684573e-01 -2.852858849885362563e-02
7.101561348668923301e-01 -2.749037898096914553e-02
7.234137535292584076e-01 -2.643593685837750465e-02
7.366724310934829045e-01 -2.536678569829300608e-02
7.499308017170179808e-01 -2.428440728793222758e-02
7.631811988119855394e-01 -2.318750297960850762e-02
7.764220158652697101e-01 -2.207118036418031365e-02
7.896527162376240083e-01 -2.093035626886259951e-02
8.028729042844181540e-01 -1.975995336035494057e-02
8.160820471397007836e-01 -1.855492410569710773e-02
8.292798506219479782e-01 -1.731022251736237527e-02
8.424681979459683889e-01 -1.602132223339205672e-02
8.556477541634033290e-01 -1.468520619004029179e-02
8.688182367383991966e-01 -1.329911220069231702e-02
8.819793161305972129e-01 -1.186028836616654682e-02
8.951465375478760977e-01 -1.036683311060485578e-02
9.083570979602355600e-01 -8.835991534880058285e-03
9.215672863035351270e-01 -7.305263421770423482e-03
9.347324187101986315e-01 -5.812323417727807522e-03
9.478557673490816127e-01 -4.388621982188689423e-03
9.609409825702068808e-01 -3.064880200539383138e-03
9.739910360248345000e-01 -1.871217131927153336e-03
9.870097531548172043e-01 -8.370205873554092697e-04
1.000000579506580944e+00 8.903332428350891291e-06
